[Software Info]
Build,NTA 2.3 build 0025

[Sample Information]
Operator,"Guillaume"
Sample Description,"exo-depleted fbs"
Diluent,""
Concentration,""
Pre-treatmeant,""
Comments,""

[Results Summary]
Total Frames,749
Processed Frames,749
Valid Tracks,606
Overall Drift (nm/s),386.47
X-Drift (nm/s),-290.88
Y-Drift (nm/s),-254.45
Calibration (nm/pixel),181

Size Data - Concentration Weighted,
Mode (nm),125.00
Mean (nm),134.59
Standard Deviation (nm),54.65
Size data - Model Fit,
Mean (nm),0.00
Standard Deviation (nm),0.00

User Line 1,0
User Line 2,0
Average # centres/frame,28.06
Average # particles/frame,23.19
Equivalent particle concentration (E8 particles/ml),2.91
Selected average # particles/frame,0.00
Selected equivalent particle concentration (E8 particles/ml),0.00

[Settings],
Background Extract,On
Brightness,0
Gain,1.00
Blur Size,Auto,
Detection Threshold Type,Multi,
Detection Threshold,10
Min Track Length,Auto
Min Expected Size (nm),Auto

[Measurement Conditions]
Camera Type,sCMOS
Camera Shutter (ms),32.49
Camera Gain,512
Frame rate (fps),24.99
Camera bit-conversion limits,0,1755
Temperature (°C),25.30
Viscosity (cP),0.883

[Warnings]
Low Completed Tracks,No
High Noise,0 frames
Auto max jump,Successful
Drift off,No
Settings Changed Whilst Processing,No
Vibration detected,No vibration detected
Additional Errors,None

[Graph Data]
Particle Size (nm),Concentration (E6 particles / ml),,
0,0.0000,,
1,0.0000,,
2,0.0000,,
3,0.0000,,
4,0.0000,,
5,0.0000,,
6,0.0000,,
7,0.0000,,
8,0.0000,,
9,0.0000,,
10,0.0000,,
11,0.0000,,
12,0.0000,,
13,0.0000,,
14,0.0000,,
15,0.0000,,
16,0.0000,,
17,0.0000,,
18,0.0000,,
19,0.0000,,
20,0.0000,,
21,0.0000,,
22,0.0001,,
23,0.0005,,
24,0.0023,,
25,0.0074,,
26,0.0195,,
27,0.0409,,
28,0.0703,,
29,0.1008,,
30,0.1231,,
31,0.1305,,
32,0.1228,,
33,0.1055,,
34,0.0875,,
35,0.0753,,
36,0.0719,,
37,0.0770,,
38,0.0902,,
39,0.1101,,
40,0.1339,,
41,0.1571,,
42,0.1751,,
43,0.1856,,
44,0.1896,,
45,0.1908,,
46,0.1941,,
47,0.2037,,
48,0.2214,,
49,0.2461,,
50,0.2755,,
51,0.3071,,
52,0.3396,,
53,0.3728,,
54,0.4078,,
55,0.4459,,
56,0.4889,,
57,0.5383,,
58,0.5952,,
59,0.6598,,
60,0.7315,,
61,0.8083,,
62,0.8876,,
63,0.9666,,
64,1.0428,,
65,1.1150,,
66,1.1827,,
67,1.2467,,
68,1.3085,,
69,1.3698,,
70,1.4313,,
71,1.4939,,
72,1.5577,,
73,1.6222,,
74,1.6870,,
75,1.7513,,
76,1.8148,,
77,1.8772,,
78,1.9387,,
79,1.9992,,
80,2.0591,,
81,2.1184,,
82,2.1768,,
83,2.2337,,
84,2.2886,,
85,2.3402,,
86,2.3867,,
87,2.4267,,
88,2.4588,,
89,2.4815,,
90,2.4944,,
91,2.4973,,
92,2.4911,,
93,2.4776,,
94,2.4585,,
95,2.4362,,
96,2.4136,,
97,2.3924,,
98,2.3747,,
99,2.3617,,
100,2.3538,,
101,2.3507,,
102,2.3521,,
103,2.3570,,
104,2.3646,,
105,2.3740,,
106,2.3850,,
107,2.3976,,
108,2.4122,,
109,2.4296,,
110,2.4508,,
111,2.4768,,
112,2.5083,,
113,2.5459,,
114,2.5897,,
115,2.6392,,
116,2.6933,,
117,2.7508,,
118,2.8095,,
119,2.8675,,
120,2.9221,,
121,2.9707,,
122,3.0108,,
123,3.0400,,
124,3.0565,,
125,3.0585,,
126,3.0450,,
127,3.0154,,
128,2.9697,,
129,2.9085,,
130,2.8329,,
131,2.7448,,
132,2.6460,,
133,2.5391,,
134,2.4264,,
135,2.3107,,
136,2.1946,,
137,2.0807,,
138,1.9711,,
139,1.8679,,
140,1.7727,,
141,1.6868,,
142,1.6109,,
143,1.5457,,
144,1.4914,,
145,1.4477,,
146,1.4143,,
147,1.3908,,
148,1.3760,,
149,1.3694,,
150,1.3697,,
151,1.3759,,
152,1.3869,,
153,1.4016,,
154,1.4189,,
155,1.4375,,
156,1.4566,,
157,1.4752,,
158,1.4922,,
159,1.5068,,
160,1.5185,,
161,1.5266,,
162,1.5306,,
163,1.5299,,
164,1.5247,,
165,1.5146,,
166,1.4998,,
167,1.4802,,
168,1.4565,,
169,1.4289,,
170,1.3978,,
171,1.3640,,
172,1.3280,,
173,1.2904,,
174,1.2520,,
175,1.2133,,
176,1.1750,,
177,1.1376,,
178,1.1015,,
179,1.0672,,
180,1.0349,,
181,1.0048,,
182,0.9770,,
183,0.9515,,
184,0.9283,,
185,0.9072,,
186,0.8879,,
187,0.8703,,
188,0.8541,,
189,0.8389,,
190,0.8245,,
191,0.8106,,
192,0.7969,,
193,0.7832,,
194,0.7692,,
195,0.7549,,
196,0.7401,,
197,0.7247,,
198,0.7087,,
199,0.6921,,
200,0.6749,,
201,0.6571,,
202,0.6388,,
203,0.6202,,
204,0.6013,,
205,0.5823,,
206,0.5632,,
207,0.5442,,
208,0.5254,,
209,0.5070,,
210,0.4889,,
211,0.4712,,
212,0.4542,,
213,0.4376,,
214,0.4218,,
215,0.4067,,
216,0.3922,,
217,0.3785,,
218,0.3654,,
219,0.3531,,
220,0.3414,,
221,0.3304,,
222,0.3201,,
223,0.3103,,
224,0.3012,,
225,0.2926,,
226,0.2844,,
227,0.2768,,
228,0.2696,,
229,0.2627,,
230,0.2562,,
231,0.2501,,
232,0.2441,,
233,0.2385,,
234,0.2330,,
235,0.2277,,
236,0.2225,,
237,0.2175,,
238,0.2125,,
239,0.2077,,
240,0.2028,,
241,0.1981,,
242,0.1935,,
243,0.1889,,
244,0.1844,,
245,0.1800,,
246,0.1756,,
247,0.1713,,
248,0.1671,,
249,0.1631,,
250,0.1591,,
251,0.1553,,
252,0.1517,,
253,0.1483,,
254,0.1450,,
255,0.1419,,
256,0.1391,,
257,0.1365,,
258,0.1341,,
259,0.1320,,
260,0.1301,,
261,0.1285,,
262,0.1271,,
263,0.1259,,
264,0.1250,,
265,0.1242,,
266,0.1238,,
267,0.1235,,
268,0.1234,,
269,0.1234,,
270,0.1237,,
271,0.1241,,
272,0.1246,,
273,0.1252,,
274,0.1259,,
275,0.1267,,
276,0.1276,,
277,0.1285,,
278,0.1295,,
279,0.1305,,
280,0.1315,,
281,0.1326,,
282,0.1336,,
283,0.1346,,
284,0.1357,,
285,0.1367,,
286,0.1376,,
287,0.1386,,
288,0.1395,,
289,0.1404,,
290,0.1412,,
291,0.1421,,
292,0.1428,,
293,0.1436,,
294,0.1443,,
295,0.1450,,
296,0.1456,,
297,0.1462,,
298,0.1467,,
299,0.1472,,
300,0.1476,,
301,0.1480,,
302,0.1483,,
303,0.1485,,
304,0.1487,,
305,0.1488,,
306,0.1489,,
307,0.1488,,
308,0.1487,,
309,0.1485,,
310,0.1481,,
311,0.1477,,
312,0.1471,,
313,0.1464,,
314,0.1456,,
315,0.1447,,
316,0.1436,,
317,0.1424,,
318,0.1410,,
319,0.1395,,
320,0.1379,,
321,0.1361,,
322,0.1342,,
323,0.1321,,
324,0.1299,,
325,0.1275,,
326,0.1251,,
327,0.1225,,
328,0.1197,,
329,0.1169,,
330,0.1140,,
331,0.1110,,
332,0.1078,,
333,0.1047,,
334,0.1014,,
335,0.0981,,
336,0.0948,,
337,0.0914,,
338,0.0880,,
339,0.0846,,
340,0.0812,,
341,0.0779,,
342,0.0745,,
343,0.0712,,
344,0.0679,,
345,0.0647,,
346,0.0616,,
347,0.0585,,
348,0.0555,,
349,0.0526,,
350,0.0497,,
351,0.0470,,
352,0.0443,,
353,0.0418,,
354,0.0393,,
355,0.0370,,
356,0.0347,,
357,0.0326,,
358,0.0305,,
359,0.0286,,
360,0.0268,,
361,0.0250,,
362,0.0234,,
363,0.0218,,
364,0.0204,,
365,0.0190,,
366,0.0177,,
367,0.0165,,
368,0.0154,,
369,0.0143,,
370,0.0133,,
371,0.0124,,
372,0.0116,,
373,0.0108,,
374,0.0100,,
375,0.0093,,
376,0.0087,,
377,0.0081,,
378,0.0075,,
379,0.0070,,
380,0.0065,,
381,0.0061,,
382,0.0056,,
383,0.0052,,
384,0.0049,,
385,0.0045,,
386,0.0042,,
387,0.0039,,
388,0.0036,,
389,0.0034,,
390,0.0032,,
391,0.0029,,
392,0.0027,,
393,0.0025,,
394,0.0023,,
395,0.0022,,
396,0.0020,,
397,0.0018,,
398,0.0017,,
399,0.0016,,
400,0.0015,,
401,0.0013,,
402,0.0012,,
403,0.0011,,
404,0.0010,,
405,0.0009,,
406,0.0008,,
407,0.0008,,
408,0.0007,,
409,0.0006,,
410,0.0006,,
411,0.0005,,
412,0.0005,,
413,0.0004,,
414,0.0004,,
415,0.0004,,
416,0.0003,,
417,0.0003,,
418,0.0003,,
419,0.0002,,
420,0.0002,,
421,0.0002,,
422,0.0002,,
423,0.0002,,
424,0.0001,,
425,0.0001,,
426,0.0001,,
427,0.0001,,
428,0.0001,,
429,0.0001,,
430,0.0001,,
431,0.0001,,
432,0.0001,,
433,0.0000,,
434,0.0000,,
435,0.0000,,
436,0.0000,,
437,0.0000,,
438,0.0000,,
439,0.0000,,
440,0.0000,,
441,0.0000,,
442,0.0000,,
443,0.0000,,
444,0.0000,,
445,0.0000,,
446,0.0000,,
447,0.0000,,
448,0.0000,,
449,0.0000,,
450,0.0000,,
451,0.0000,,
452,0.0000,,
453,0.0000,,
454,0.0000,,
455,0.0000,,
456,0.0000,,
457,0.0000,,
458,0.0000,,
459,0.0000,,
460,0.0000,,
461,0.0000,,
462,0.0000,,
463,0.0000,,
464,0.0000,,
465,0.0000,,
466,0.0000,,
467,0.0000,,
468,0.0000,,
469,0.0000,,
470,0.0000,,
471,0.0000,,
472,0.0000,,
473,0.0000,,
474,0.0000,,
475,0.0000,,
476,0.0000,,
477,0.0000,,
478,0.0000,,
479,0.0000,,
480,0.0000,,
481,0.0000,,
482,0.0000,,
483,0.0000,,
484,0.0000,,
485,0.0000,,
486,0.0000,,
487,0.0000,,
488,0.0000,,
489,0.0000,,
490,0.0000,,
491,0.0000,,
492,0.0000,,
493,0.0000,,
494,0.0000,,
495,0.0000,,
496,0.0000,,
497,0.0000,,
498,0.0000,,
499,0.0000,,
500,0.0000,,
501,0.0000,,
502,0.0000,,
503,0.0000,,
504,0.0000,,
505,0.0000,,
506,0.0000,,
507,0.0000,,
508,0.0000,,
509,0.0000,,
510,0.0000,,
511,0.0000,,
512,0.0000,,
513,0.0000,,
514,0.0000,,
515,0.0000,,
516,0.0000,,
517,0.0000,,
518,0.0000,,
519,0.0000,,
520,0.0000,,
521,0.0000,,
522,0.0000,,
523,0.0000,,
524,0.0000,,
525,0.0000,,
526,0.0000,,
527,0.0000,,
528,0.0000,,
529,0.0000,,
530,0.0000,,
531,0.0000,,
532,0.0000,,
533,0.0000,,
534,0.0000,,
535,0.0000,,
536,0.0000,,
537,0.0000,,
538,0.0000,,
539,0.0000,,
540,0.0000,,
541,0.0000,,
542,0.0000,,
543,0.0000,,
544,0.0000,,
545,0.0000,,
546,0.0000,,
547,0.0000,,
548,0.0000,,
549,0.0000,,
550,0.0000,,
551,0.0000,,
552,0.0000,,
553,0.0000,,
554,0.0000,,
555,0.0000,,
556,0.0000,,
557,0.0000,,
558,0.0000,,
559,0.0000,,
560,0.0000,,
561,0.0000,,
562,0.0000,,
563,0.0000,,
564,0.0000,,
565,0.0000,,
566,0.0000,,
567,0.0000,,
568,0.0000,,
569,0.0000,,
570,0.0000,,
571,0.0000,,
572,0.0000,,
573,0.0000,,
574,0.0000,,
575,0.0000,,
576,0.0000,,
577,0.0000,,
578,0.0000,,
579,0.0000,,
580,0.0000,,
581,0.0000,,
582,0.0000,,
583,0.0000,,
584,0.0000,,
585,0.0000,,
586,0.0000,,
587,0.0000,,
588,0.0000,,
589,0.0000,,
590,0.0000,,
591,0.0000,,
592,0.0000,,
593,0.0000,,
594,0.0000,,
595,0.0000,,
596,0.0000,,
597,0.0000,,
598,0.0000,,
599,0.0000,,
600,0.0000,,
601,0.0000,,
602,0.0000,,
603,0.0000,,
604,0.0000,,
605,0.0000,,
606,0.0000,,
607,0.0000,,
608,0.0000,,
609,0.0000,,
610,0.0000,,
611,0.0000,,
612,0.0000,,
613,0.0000,,
614,0.0000,,
615,0.0000,,
616,0.0000,,
617,0.0000,,
618,0.0000,,
619,0.0000,,
620,0.0000,,
621,0.0000,,
622,0.0000,,
623,0.0000,,
624,0.0000,,
625,0.0000,,
626,0.0000,,
627,0.0000,,
628,0.0000,,
629,0.0000,,
630,0.0000,,
631,0.0000,,
632,0.0000,,
633,0.0000,,
634,0.0000,,
635,0.0000,,
636,0.0000,,
637,0.0000,,
638,0.0000,,
639,0.0000,,
640,0.0000,,
641,0.0000,,
642,0.0000,,
643,0.0000,,
644,0.0000,,
645,0.0000,,
646,0.0000,,
647,0.0000,,
648,0.0000,,
649,0.0000,,
650,0.0000,,
651,0.0000,,
652,0.0000,,
653,0.0000,,
654,0.0000,,
655,0.0000,,
656,0.0000,,
657,0.0000,,
658,0.0000,,
659,0.0000,,
660,0.0000,,
661,0.0000,,
662,0.0000,,
663,0.0000,,
664,0.0000,,
665,0.0000,,
666,0.0000,,
667,0.0000,,
668,0.0000,,
669,0.0000,,
670,0.0000,,
671,0.0000,,
672,0.0000,,
673,0.0000,,
674,0.0000,,
675,0.0000,,
676,0.0000,,
677,0.0000,,
678,0.0000,,
679,0.0000,,
680,0.0000,,
681,0.0000,,
682,0.0000,,
683,0.0000,,
684,0.0000,,
685,0.0000,,
686,0.0000,,
687,0.0000,,
688,0.0000,,
689,0.0000,,
690,0.0000,,
691,0.0000,,
692,0.0000,,
693,0.0000,,
694,0.0000,,
695,0.0000,,
696,0.0000,,
697,0.0000,,
698,0.0000,,
699,0.0000,,
700,0.0000,,
701,0.0000,,
702,0.0000,,
703,0.0000,,
704,0.0000,,
705,0.0000,,
706,0.0000,,
707,0.0000,,
708,0.0000,,
709,0.0000,,
710,0.0000,,
711,0.0000,,
712,0.0000,,
713,0.0000,,
714,0.0000,,
715,0.0000,,
716,0.0000,,
717,0.0000,,
718,0.0000,,
719,0.0000,,
720,0.0000,,
721,0.0000,,
722,0.0000,,
723,0.0000,,
724,0.0000,,
725,0.0000,,
726,0.0000,,
727,0.0000,,
728,0.0000,,
729,0.0000,,
730,0.0000,,
731,0.0000,,
732,0.0000,,
733,0.0000,,
734,0.0000,,
735,0.0000,,
736,0.0000,,
737,0.0000,,
738,0.0000,,
739,0.0000,,
740,0.0000,,
741,0.0000,,
742,0.0000,,
743,0.0000,,
744,0.0000,,
745,0.0000,,
746,0.0000,,
747,0.0000,,
748,0.0000,,
749,0.0000,,
750,0.0000,,
751,0.0000,,
752,0.0000,,
753,0.0000,,
754,0.0000,,
755,0.0000,,
756,0.0000,,
757,0.0000,,
758,0.0000,,
759,0.0000,,
760,0.0000,,
761,0.0000,,
762,0.0000,,
763,0.0000,,
764,0.0000,,
765,0.0000,,
766,0.0000,,
767,0.0000,,
768,0.0000,,
769,0.0000,,
770,0.0000,,
771,0.0000,,
772,0.0000,,
773,0.0000,,
774,0.0000,,
775,0.0000,,
776,0.0000,,
777,0.0000,,
778,0.0000,,
779,0.0000,,
780,0.0000,,
781,0.0000,,
782,0.0000,,
783,0.0000,,
784,0.0000,,
785,0.0000,,
786,0.0000,,
787,0.0000,,
788,0.0000,,
789,0.0000,,
790,0.0000,,
791,0.0000,,
792,0.0000,,
793,0.0000,,
794,0.0000,,
795,0.0000,,
796,0.0000,,
797,0.0000,,
798,0.0000,,
799,0.0000,,
800,0.0000,,
801,0.0000,,
802,0.0000,,
803,0.0000,,
804,0.0000,,
805,0.0000,,
806,0.0000,,
807,0.0000,,
808,0.0000,,
809,0.0000,,
810,0.0000,,
811,0.0000,,
812,0.0000,,
813,0.0000,,
814,0.0000,,
815,0.0000,,
816,0.0000,,
817,0.0000,,
818,0.0000,,
819,0.0000,,
820,0.0000,,
821,0.0000,,
822,0.0000,,
823,0.0000,,
824,0.0000,,
825,0.0000,,
826,0.0000,,
827,0.0000,,
828,0.0000,,
829,0.0000,,
830,0.0000,,
831,0.0000,,
832,0.0000,,
833,0.0000,,
834,0.0000,,
835,0.0000,,
836,0.0000,,
837,0.0000,,
838,0.0000,,
839,0.0000,,
840,0.0000,,
841,0.0000,,
842,0.0000,,
843,0.0000,,
844,0.0000,,
845,0.0000,,
846,0.0000,,
847,0.0000,,
848,0.0000,,
849,0.0000,,
850,0.0000,,
851,0.0000,,
852,0.0000,,
853,0.0000,,
854,0.0000,,
855,0.0000,,
856,0.0000,,
857,0.0000,,
858,0.0000,,
859,0.0000,,
860,0.0000,,
861,0.0000,,
862,0.0000,,
863,0.0000,,
864,0.0000,,
865,0.0000,,
866,0.0000,,
867,0.0000,,
868,0.0000,,
869,0.0000,,
870,0.0000,,
871,0.0000,,
872,0.0000,,
873,0.0000,,
874,0.0000,,
875,0.0000,,
876,0.0000,,
877,0.0000,,
878,0.0000,,
879,0.0000,,
880,0.0000,,
881,0.0000,,
882,0.0000,,
883,0.0000,,
884,0.0000,,
885,0.0000,,
886,0.0000,,
887,0.0000,,
888,0.0000,,
889,0.0000,,
890,0.0000,,
891,0.0000,,
892,0.0000,,
893,0.0000,,
894,0.0000,,
895,0.0000,,
896,0.0000,,
897,0.0000,,
898,0.0000,,
899,0.0000,,
900,0.0000,,
901,0.0000,,
902,0.0000,,
903,0.0000,,
904,0.0000,,
905,0.0000,,
906,0.0000,,
907,0.0000,,
908,0.0000,,
909,0.0000,,
910,0.0000,,
911,0.0000,,
912,0.0000,,
913,0.0000,,
914,0.0000,,
915,0.0000,,
916,0.0000,,
917,0.0000,,
918,0.0000,,
919,0.0000,,
920,0.0000,,
921,0.0000,,
922,0.0000,,
923,0.0000,,
924,0.0000,,
925,0.0000,,
926,0.0000,,
927,0.0000,,
928,0.0000,,
929,0.0000,,
930,0.0000,,
931,0.0000,,
932,0.0000,,
933,0.0000,,
934,0.0000,,
935,0.0000,,
936,0.0000,,
937,0.0000,,
938,0.0000,,
939,0.0000,,
940,0.0000,,
941,0.0000,,
942,0.0000,,
943,0.0000,,
944,0.0000,,
945,0.0000,,
946,0.0000,,
947,0.0000,,
948,0.0000,,
949,0.0000,,
950,0.0000,,
951,0.0000,,
952,0.0000,,
953,0.0000,,
954,0.0000,,
955,0.0000,,
956,0.0000,,
957,0.0000,,
958,0.0000,,
959,0.0000,,
960,0.0000,,
961,0.0000,,
962,0.0000,,
963,0.0000,,
964,0.0000,,
965,0.0000,,
966,0.0000,,
967,0.0000,,
968,0.0000,,
969,0.0000,,
970,0.0000,,
971,0.0000,,
972,0.0000,,
973,0.0000,,
974,0.0000,,
975,0.0000,,
976,0.0000,,
977,0.0000,,
978,0.0000,,
979,0.0000,,
980,0.0000,,
981,0.0000,,
982,0.0000,,
983,0.0000,,
984,0.0000,,
985,0.0000,,
986,0.0000,,
987,0.0000,,
988,0.0000,,
989,0.0000,,
990,0.0000,,
991,0.0000,,
992,0.0000,,
993,0.0000,,
994,0.0000,,
995,0.0000,,
996,0.0000,,
997,0.0000,,
998,0.0000,,
999,0.0000,,
1000,0.0000,,
1001,0.0000,,
1002,0.0000,,
1003,0.0000,,
1004,0.0000,,
1005,0.0000,,
1006,0.0000,,
1007,0.0000,,
1008,0.0000,,
1009,0.0000,,
1010,0.0000,,
1011,0.0000,,
1012,0.0000,,
1013,0.0000,,
1014,0.0000,,
1015,0.0000,,
1016,0.0000,,
1017,0.0000,,
1018,0.0000,,
1019,0.0000,,
1020,0.0000,,
1021,0.0000,,
1022,0.0000,,
1023,0.0000,,
1024,0.0000,,
1025,0.0000,,
1026,0.0000,,
1027,0.0000,,
1028,0.0000,,
1029,0.0000,,
1030,0.0000,,
1031,0.0000,,
1032,0.0000,,
1033,0.0000,,
1034,0.0000,,
1035,0.0000,,
1036,0.0000,,
1037,0.0000,,
1038,0.0000,,
1039,0.0000,,
1040,0.0000,,
1041,0.0000,,
1042,0.0000,,
1043,0.0000,,
1044,0.0000,,
1045,0.0000,,
1046,0.0000,,
1047,0.0000,,
1048,0.0000,,
1049,0.0000,,
1050,0.0000,,
1051,0.0000,,
1052,0.0000,,
1053,0.0000,,
1054,0.0000,,
1055,0.0000,,
1056,0.0000,,
1057,0.0000,,
1058,0.0000,,
1059,0.0000,,
1060,0.0000,,
1061,0.0000,,
1062,0.0000,,
1063,0.0000,,
1064,0.0000,,
1065,0.0000,,
1066,0.0000,,
1067,0.0000,,
1068,0.0000,,
1069,0.0000,,
1070,0.0000,,
1071,0.0000,,
1072,0.0000,,
1073,0.0000,,
1074,0.0000,,
1075,0.0000,,
1076,0.0000,,
1077,0.0000,,
1078,0.0000,,
1079,0.0000,,
1080,0.0000,,
1081,0.0000,,
1082,0.0000,,
1083,0.0000,,
1084,0.0000,,
1085,0.0000,,
1086,0.0000,,
1087,0.0000,,
1088,0.0000,,
1089,0.0000,,
1090,0.0000,,
1091,0.0000,,
1092,0.0000,,
1093,0.0000,,
1094,0.0000,,
1095,0.0000,,
1096,0.0000,,
1097,0.0000,,
1098,0.0000,,
1099,0.0000,,
1100,0.0000,,
1101,0.0000,,
1102,0.0000,,
1103,0.0000,,
1104,0.0000,,
1105,0.0000,,
1106,0.0000,,
1107,0.0000,,
1108,0.0000,,
1109,0.0000,,
1110,0.0000,,
1111,0.0000,,
1112,0.0000,,
1113,0.0000,,
1114,0.0000,,
1115,0.0000,,
1116,0.0000,,
1117,0.0000,,
1118,0.0000,,
1119,0.0000,,
1120,0.0000,,
1121,0.0000,,
1122,0.0000,,
1123,0.0000,,
1124,0.0000,,
1125,0.0000,,
1126,0.0000,,
1127,0.0000,,
1128,0.0000,,
1129,0.0000,,
1130,0.0000,,
1131,0.0000,,
1132,0.0000,,
1133,0.0000,,
1134,0.0000,,
1135,0.0000,,
1136,0.0000,,
1137,0.0000,,
1138,0.0000,,
1139,0.0000,,
1140,0.0000,,
1141,0.0000,,
1142,0.0000,,
1143,0.0000,,
1144,0.0000,,
1145,0.0000,,
1146,0.0000,,
1147,0.0000,,
1148,0.0000,,
1149,0.0000,,
1150,0.0000,,
1151,0.0000,,
1152,0.0000,,
1153,0.0000,,
1154,0.0000,,
1155,0.0000,,
1156,0.0000,,
1157,0.0000,,
1158,0.0000,,
1159,0.0000,,
1160,0.0000,,
1161,0.0000,,
1162,0.0000,,
1163,0.0000,,
1164,0.0000,,
1165,0.0000,,
1166,0.0000,,
1167,0.0000,,
1168,0.0000,,
1169,0.0000,,
1170,0.0000,,
1171,0.0000,,
1172,0.0000,,
1173,0.0000,,
1174,0.0000,,
1175,0.0000,,
1176,0.0000,,
1177,0.0000,,
1178,0.0000,,
1179,0.0000,,
1180,0.0000,,
1181,0.0000,,
1182,0.0000,,
1183,0.0000,,
1184,0.0000,,
1185,0.0000,,
1186,0.0000,,
1187,0.0000,,
1188,0.0000,,
1189,0.0000,,
1190,0.0000,,
1191,0.0000,,
1192,0.0000,,
1193,0.0000,,
1194,0.0000,,
1195,0.0000,,
1196,0.0000,,
1197,0.0000,,
1198,0.0000,,
1199,0.0000,,
1200,0.0000,,
1201,0.0000,,
1202,0.0000,,
1203,0.0000,,
1204,0.0000,,
1205,0.0000,,
1206,0.0000,,
1207,0.0000,,
1208,0.0000,,
1209,0.0000,,
1210,0.0000,,
1211,0.0000,,
1212,0.0000,,
1213,0.0000,,
1214,0.0000,,
1215,0.0000,,
1216,0.0000,,
1217,0.0000,,
1218,0.0000,,
1219,0.0000,,
1220,0.0000,,
1221,0.0000,,
1222,0.0000,,
1223,0.0000,,
1224,0.0000,,
1225,0.0000,,
1226,0.0000,,
1227,0.0000,,
1228,0.0000,,
1229,0.0000,,
1230,0.0000,,
1231,0.0000,,
1232,0.0000,,
1233,0.0000,,
1234,0.0000,,
1235,0.0000,,
1236,0.0000,,
1237,0.0000,,
1238,0.0000,,
1239,0.0000,,
1240,0.0000,,
1241,0.0000,,
1242,0.0000,,
1243,0.0000,,
1244,0.0000,,
1245,0.0000,,
1246,0.0000,,
1247,0.0000,,
1248,0.0000,,
1249,0.0000,,
1250,0.0000,,
1251,0.0000,,
1252,0.0000,,
1253,0.0000,,
1254,0.0000,,
1255,0.0000,,
1256,0.0000,,
1257,0.0000,,
1258,0.0000,,
1259,0.0000,,
1260,0.0000,,
1261,0.0000,,
1262,0.0000,,
1263,0.0000,,
1264,0.0000,,
1265,0.0000,,
1266,0.0000,,
1267,0.0000,,
1268,0.0000,,
1269,0.0000,,
1270,0.0000,,
1271,0.0000,,
1272,0.0000,,
1273,0.0000,,
1274,0.0000,,
1275,0.0000,,
1276,0.0000,,
1277,0.0000,,
1278,0.0000,,
1279,0.0000,,
1280,0.0000,,
1281,0.0000,,
1282,0.0000,,
1283,0.0000,,
1284,0.0000,,
1285,0.0000,,
1286,0.0000,,
1287,0.0000,,
1288,0.0000,,
1289,0.0000,,
1290,0.0000,,
1291,0.0000,,
1292,0.0000,,
1293,0.0000,,
1294,0.0000,,
1295,0.0000,,
1296,0.0000,,
1297,0.0000,,
1298,0.0000,,
1299,0.0000,,
1300,0.0000,,
1301,0.0000,,
1302,0.0000,,
1303,0.0000,,
1304,0.0000,,
1305,0.0000,,
1306,0.0000,,
1307,0.0000,,
1308,0.0000,,
1309,0.0000,,
1310,0.0000,,
1311,0.0000,,
1312,0.0000,,
1313,0.0000,,
1314,0.0000,,
1315,0.0000,,
1316,0.0000,,
1317,0.0000,,
1318,0.0000,,
1319,0.0000,,
1320,0.0000,,
1321,0.0000,,
1322,0.0000,,
1323,0.0000,,
1324,0.0000,,
1325,0.0000,,
1326,0.0000,,
1327,0.0000,,
1328,0.0000,,
1329,0.0000,,
1330,0.0000,,
1331,0.0000,,
1332,0.0000,,
1333,0.0000,,
1334,0.0000,,
1335,0.0000,,
1336,0.0000,,
1337,0.0000,,
1338,0.0000,,
1339,0.0000,,
1340,0.0000,,
1341,0.0000,,
1342,0.0000,,
1343,0.0000,,
1344,0.0000,,
1345,0.0000,,
1346,0.0000,,
1347,0.0000,,
1348,0.0000,,
1349,0.0000,,
1350,0.0000,,
1351,0.0000,,
1352,0.0000,,
1353,0.0000,,
1354,0.0000,,
1355,0.0000,,
1356,0.0000,,
1357,0.0000,,
1358,0.0000,,
1359,0.0000,,
1360,0.0000,,
1361,0.0000,,
1362,0.0000,,
1363,0.0000,,
1364,0.0000,,
1365,0.0000,,
1366,0.0000,,
1367,0.0000,,
1368,0.0000,,
1369,0.0000,,
1370,0.0000,,
1371,0.0000,,
1372,0.0000,,
1373,0.0000,,
1374,0.0000,,
1375,0.0000,,
1376,0.0000,,
1377,0.0000,,
1378,0.0000,,
1379,0.0000,,
1380,0.0000,,
1381,0.0000,,
1382,0.0000,,
1383,0.0000,,
1384,0.0000,,
1385,0.0000,,
1386,0.0000,,
1387,0.0000,,
1388,0.0000,,
1389,0.0000,,
1390,0.0000,,
1391,0.0000,,
1392,0.0000,,
1393,0.0000,,
1394,0.0000,,
1395,0.0000,,
1396,0.0000,,
1397,0.0000,,
1398,0.0000,,
1399,0.0000,,
1400,0.0000,,
1401,0.0000,,
1402,0.0000,,
1403,0.0000,,
1404,0.0000,,
1405,0.0000,,
1406,0.0000,,
1407,0.0000,,
1408,0.0000,,
1409,0.0000,,
1410,0.0000,,
1411,0.0000,,
1412,0.0000,,
1413,0.0000,,
1414,0.0000,,
1415,0.0000,,
1416,0.0000,,
1417,0.0000,,
1418,0.0000,,
1419,0.0000,,
1420,0.0000,,
1421,0.0000,,
1422,0.0000,,
1423,0.0000,,
1424,0.0000,,
1425,0.0000,,
1426,0.0000,,
1427,0.0000,,
1428,0.0000,,
1429,0.0000,,
1430,0.0000,,
1431,0.0000,,
1432,0.0000,,
1433,0.0000,,
1434,0.0000,,
1435,0.0000,,
1436,0.0000,,
1437,0.0000,,
1438,0.0000,,
1439,0.0000,,
1440,0.0000,,
1441,0.0000,,
1442,0.0000,,
1443,0.0000,,
1444,0.0000,,
1445,0.0000,,
1446,0.0000,,
1447,0.0000,,
1448,0.0000,,
1449,0.0000,,
1450,0.0000,,
1451,0.0000,,
1452,0.0000,,
1453,0.0000,,
1454,0.0000,,
1455,0.0000,,
1456,0.0000,,
1457,0.0000,,
1458,0.0000,,
1459,0.0000,,
1460,0.0000,,
1461,0.0000,,
1462,0.0000,,
1463,0.0000,,
1464,0.0000,,
1465,0.0000,,
1466,0.0000,,
1467,0.0000,,
1468,0.0000,,
1469,0.0000,,
1470,0.0000,,
1471,0.0000,,
1472,0.0000,,
1473,0.0000,,
1474,0.0000,,
1475,0.0000,,
1476,0.0000,,
1477,0.0000,,
1478,0.0000,,
1479,0.0000,,
1480,0.0000,,
1481,0.0000,,
1482,0.0000,,
1483,0.0000,,
1484,0.0000,,
1485,0.0000,,
1486,0.0000,,
1487,0.0000,,
1488,0.0000,,
1489,0.0000,,
1490,0.0000,,
1491,0.0000,,
1492,0.0000,,
1493,0.0000,,
1494,0.0000,,
1495,0.0000,,
1496,0.0000,,
1497,0.0000,,
1498,0.0000,,
1499,0.0000,,
1500,0.0000,,
1501,0.0000,,
1502,0.0000,,
1503,0.0000,,
1504,0.0000,,
1505,0.0000,,
1506,0.0000,,
1507,0.0000,,
1508,0.0000,,
1509,0.0000,,
1510,0.0000,,
1511,0.0000,,
1512,0.0000,,
1513,0.0000,,
1514,0.0000,,
1515,0.0000,,
1516,0.0000,,
1517,0.0000,,
1518,0.0000,,
1519,0.0000,,
1520,0.0000,,
1521,0.0000,,
1522,0.0000,,
1523,0.0000,,
1524,0.0000,,
1525,0.0000,,
1526,0.0000,,
1527,0.0000,,
1528,0.0000,,
1529,0.0000,,
1530,0.0000,,
1531,0.0000,,
1532,0.0000,,
1533,0.0000,,
1534,0.0000,,
1535,0.0000,,
1536,0.0000,,
1537,0.0000,,
1538,0.0000,,
1539,0.0000,,
1540,0.0000,,
1541,0.0000,,
1542,0.0000,,
1543,0.0000,,
1544,0.0000,,
1545,0.0000,,
1546,0.0000,,
1547,0.0000,,
1548,0.0000,,
1549,0.0000,,
1550,0.0000,,
1551,0.0000,,
1552,0.0000,,
1553,0.0000,,
1554,0.0000,,
1555,0.0000,,
1556,0.0000,,
1557,0.0000,,
1558,0.0000,,
1559,0.0000,,
1560,0.0000,,
1561,0.0000,,
1562,0.0000,,
1563,0.0000,,
1564,0.0000,,
1565,0.0000,,
1566,0.0000,,
1567,0.0000,,
1568,0.0000,,
1569,0.0000,,
1570,0.0000,,
1571,0.0000,,
1572,0.0000,,
1573,0.0000,,
1574,0.0000,,
1575,0.0000,,
1576,0.0000,,
1577,0.0000,,
1578,0.0000,,
1579,0.0000,,
1580,0.0000,,
1581,0.0000,,
1582,0.0000,,
1583,0.0000,,
1584,0.0000,,
1585,0.0000,,
1586,0.0000,,
1587,0.0000,,
1588,0.0000,,
1589,0.0000,,
1590,0.0000,,
1591,0.0000,,
1592,0.0000,,
1593,0.0000,,
1594,0.0000,,
1595,0.0000,,
1596,0.0000,,
1597,0.0000,,
1598,0.0000,,
1599,0.0000,,
1600,0.0000,,
1601,0.0000,,
1602,0.0000,,
1603,0.0000,,
1604,0.0000,,
1605,0.0000,,
1606,0.0000,,
1607,0.0000,,
1608,0.0000,,
1609,0.0000,,
1610,0.0000,,
1611,0.0000,,
1612,0.0000,,
1613,0.0000,,
1614,0.0000,,
1615,0.0000,,
1616,0.0000,,
1617,0.0000,,
1618,0.0000,,
1619,0.0000,,
1620,0.0000,,
1621,0.0000,,
1622,0.0000,,
1623,0.0000,,
1624,0.0000,,
1625,0.0000,,
1626,0.0000,,
1627,0.0000,,
1628,0.0000,,
1629,0.0000,,
1630,0.0000,,
1631,0.0000,,
1632,0.0000,,
1633,0.0000,,
1634,0.0000,,
1635,0.0000,,
1636,0.0000,,
1637,0.0000,,
1638,0.0000,,
1639,0.0000,,
1640,0.0000,,
1641,0.0000,,
1642,0.0000,,
1643,0.0000,,
1644,0.0000,,
1645,0.0000,,
1646,0.0000,,
1647,0.0000,,
1648,0.0000,,
1649,0.0000,,
1650,0.0000,,
1651,0.0000,,
1652,0.0000,,
1653,0.0000,,
1654,0.0000,,
1655,0.0000,,
1656,0.0000,,
1657,0.0000,,
1658,0.0000,,
1659,0.0000,,
1660,0.0000,,
1661,0.0000,,
1662,0.0000,,
1663,0.0000,,
1664,0.0000,,
1665,0.0000,,
1666,0.0000,,
1667,0.0000,,
1668,0.0000,,
1669,0.0000,,
1670,0.0000,,
1671,0.0000,,
1672,0.0000,,
1673,0.0000,,
1674,0.0000,,
1675,0.0000,,
1676,0.0000,,
1677,0.0000,,
1678,0.0000,,
1679,0.0000,,
1680,0.0000,,
1681,0.0000,,
1682,0.0000,,
1683,0.0000,,
1684,0.0000,,
1685,0.0000,,
1686,0.0000,,
1687,0.0000,,
1688,0.0000,,
1689,0.0000,,
1690,0.0000,,
1691,0.0000,,
1692,0.0000,,
1693,0.0000,,
1694,0.0000,,
1695,0.0000,,
1696,0.0000,,
1697,0.0000,,
1698,0.0000,,
1699,0.0000,,
1700,0.0000,,
1701,0.0000,,
1702,0.0000,,
1703,0.0000,,
1704,0.0000,,
1705,0.0000,,
1706,0.0000,,
1707,0.0000,,
1708,0.0000,,
1709,0.0000,,
1710,0.0000,,
1711,0.0000,,
1712,0.0000,,
1713,0.0000,,
1714,0.0000,,
1715,0.0000,,
1716,0.0000,,
1717,0.0000,,
1718,0.0000,,
1719,0.0000,,
1720,0.0000,,
1721,0.0000,,
1722,0.0000,,
1723,0.0000,,
1724,0.0000,,
1725,0.0000,,
1726,0.0000,,
1727,0.0000,,
1728,0.0000,,
1729,0.0000,,
1730,0.0000,,
1731,0.0000,,
1732,0.0000,,
1733,0.0000,,
1734,0.0000,,
1735,0.0000,,
1736,0.0000,,
1737,0.0000,,
1738,0.0000,,
1739,0.0000,,
1740,0.0000,,
1741,0.0000,,
1742,0.0000,,
1743,0.0000,,
1744,0.0000,,
1745,0.0000,,
1746,0.0000,,
1747,0.0000,,
1748,0.0000,,
1749,0.0000,,
1750,0.0000,,
1751,0.0000,,
1752,0.0000,,
1753,0.0000,,
1754,0.0000,,
1755,0.0000,,
1756,0.0000,,
1757,0.0000,,
1758,0.0000,,
1759,0.0000,,
1760,0.0000,,
1761,0.0000,,
1762,0.0000,,
1763,0.0000,,
1764,0.0000,,
1765,0.0000,,
1766,0.0000,,
1767,0.0000,,
1768,0.0000,,
1769,0.0000,,
1770,0.0000,,
1771,0.0000,,
1772,0.0000,,
1773,0.0000,,
1774,0.0000,,
1775,0.0000,,
1776,0.0000,,
1777,0.0000,,
1778,0.0000,,
1779,0.0000,,
1780,0.0000,,
1781,0.0000,,
1782,0.0000,,
1783,0.0000,,
1784,0.0000,,
1785,0.0000,,
1786,0.0000,,
1787,0.0000,,
1788,0.0000,,
1789,0.0000,,
1790,0.0000,,
1791,0.0000,,
1792,0.0000,,
1793,0.0000,,
1794,0.0000,,
1795,0.0000,,
1796,0.0000,,
1797,0.0000,,
1798,0.0000,,
1799,0.0000,,
1800,0.0000,,
1801,0.0000,,
1802,0.0000,,
1803,0.0000,,
1804,0.0000,,
1805,0.0000,,
1806,0.0000,,
1807,0.0000,,
1808,0.0000,,
1809,0.0000,,
1810,0.0000,,
1811,0.0000,,
1812,0.0000,,
1813,0.0000,,
1814,0.0000,,
1815,0.0000,,
1816,0.0000,,
1817,0.0000,,
1818,0.0000,,
1819,0.0000,,
1820,0.0000,,
1821,0.0000,,
1822,0.0000,,
1823,0.0000,,
1824,0.0000,,
1825,0.0000,,
1826,0.0000,,
1827,0.0000,,
1828,0.0000,,
1829,0.0000,,
1830,0.0000,,
1831,0.0000,,
1832,0.0000,,
1833,0.0000,,
1834,0.0000,,
1835,0.0000,,
1836,0.0000,,
1837,0.0000,,
1838,0.0000,,
1839,0.0000,,
1840,0.0000,,
1841,0.0000,,
1842,0.0000,,
1843,0.0000,,
1844,0.0000,,
1845,0.0000,,
1846,0.0000,,
1847,0.0000,,
1848,0.0000,,
1849,0.0000,,
1850,0.0000,,
1851,0.0000,,
1852,0.0000,,
1853,0.0000,,
1854,0.0000,,
1855,0.0000,,
1856,0.0000,,
1857,0.0000,,
1858,0.0000,,
1859,0.0000,,
1860,0.0000,,
1861,0.0000,,
1862,0.0000,,
1863,0.0000,,
1864,0.0000,,
1865,0.0000,,
1866,0.0000,,
1867,0.0000,,
1868,0.0000,,
1869,0.0000,,
1870,0.0000,,
1871,0.0000,,
1872,0.0000,,
1873,0.0000,,
1874,0.0000,,
1875,0.0000,,
1876,0.0000,,
1877,0.0000,,
1878,0.0000,,
1879,0.0000,,
1880,0.0000,,
1881,0.0000,,
1882,0.0000,,
1883,0.0000,,
1884,0.0000,,
1885,0.0000,,
1886,0.0000,,
1887,0.0000,,
1888,0.0000,,
1889,0.0000,,
1890,0.0000,,
1891,0.0000,,
1892,0.0000,,
1893,0.0000,,
1894,0.0000,,
1895,0.0000,,
1896,0.0000,,
1897,0.0000,,
1898,0.0000,,
1899,0.0000,,
1900,0.0000,,
1901,0.0000,,
1902,0.0000,,
1903,0.0000,,
1904,0.0000,,
1905,0.0000,,
1906,0.0000,,
1907,0.0000,,
1908,0.0000,,
1909,0.0000,,
1910,0.0000,,
1911,0.0000,,
1912,0.0000,,
1913,0.0000,,
1914,0.0000,,
1915,0.0000,,
1916,0.0000,,
1917,0.0000,,
1918,0.0000,,
1919,0.0000,,
1920,0.0000,,
1921,0.0000,,
1922,0.0000,,
1923,0.0000,,
1924,0.0000,,
1925,0.0000,,
1926,0.0000,,
1927,0.0000,,
1928,0.0000,,
1929,0.0000,,
1930,0.0000,,
1931,0.0000,,
1932,0.0000,,
1933,0.0000,,
1934,0.0000,,
1935,0.0000,,
1936,0.0000,,
1937,0.0000,,
1938,0.0000,,
1939,0.0000,,
1940,0.0000,,
1941,0.0000,,
1942,0.0000,,
1943,0.0000,,
1944,0.0000,,
1945,0.0000,,
1946,0.0000,,
1947,0.0000,,
1948,0.0000,,
1949,0.0000,,
1950,0.0000,,
1951,0.0000,,
1952,0.0000,,
1953,0.0000,,
1954,0.0000,,
1955,0.0000,,
1956,0.0000,,
1957,0.0000,,
1958,0.0000,,
1959,0.0000,,
1960,0.0000,,
1961,0.0000,,
1962,0.0000,,
1963,0.0000,,
1964,0.0000,,
1965,0.0000,,
1966,0.0000,,
1967,0.0000,,
1968,0.0000,,
1969,0.0000,,
1970,0.0000,,
1971,0.0000,,
1972,0.0000,,
1973,0.0000,,
1974,0.0000,,
1975,0.0000,,
1976,0.0000,,
1977,0.0000,,
1978,0.0000,,
1979,0.0000,,
1980,0.0000,,
1981,0.0000,,
1982,0.0000,,
1983,0.0000,,
1984,0.0000,,
1985,0.0000,,
1986,0.0000,,
1987,0.0000,,
1988,0.0000,,
1989,0.0000,,
1990,0.0000,,
1991,0.0000,,
1992,0.0000,,
1993,0.0000,,
1994,0.0000,,
1995,0.0000,,
1996,0.0000,,
1997,0.0000,,
1998,0.0000,,
1999,0.0000,,

[Percentile Undersize]
Percentile,Particle Size (nm),
0,22,
1,49,
2,57,
3,61,
4,64,
5,67,
6,69,
7,71,
8,73,
9,75,
10,76,
11,78,
12,79,
13,81,
14,82,
15,83,
16,85,
17,86,
18,87,
19,88,
20,89,
21,91,
22,92,
23,93,
24,94,
25,95,
26,96,
27,98,
28,99,
29,100,
30,101,
31,103,
32,104,
33,105,
34,106,
35,108,
36,109,
37,110,
38,111,
39,112,
40,113,
41,115,
42,116,
43,117,
44,118,
45,119,
46,120,
47,121,
48,122,
49,123,
50,124,
51,125,
52,126,
53,127,
54,128,
55,128,
56,129,
57,131,
58,132,
59,133,
60,134,
61,135,
62,136,
63,138,
64,139,
65,141,
66,143,
67,145,
68,147,
69,149,
70,151,
71,153,
72,155,
73,157,
74,159,
75,161,
76,163,
77,165,
78,167,
79,169,
80,171,
81,173,
82,175,
83,178,
84,180,
85,183,
86,187,
87,190,
88,194,
89,198,
90,202,
91,207,
92,213,
93,220,
94,230,
95,243,
96,262,
97,285,
98,305,
99,326,
100,453,

