[Software Info]
Build,NTA 2.3 build 0025

[Sample Information]
Operator,"Guillaume"
Sample Description,"exo dep fbs 50x dil"
Diluent,""
Concentration,""
Pre-treatmeant,""
Comments,""

[Results Summary]
Total Frames,749
Processed Frames,749
Valid Tracks,803
Overall Drift (nm/s),718.68
X-Drift (nm/s),-235.26
Y-Drift (nm/s),-679.08
Calibration (nm/pixel),181

Size Data - Concentration Weighted,
Mode (nm),114.00
Mean (nm),165.01
Standard Deviation (nm),88.66
Size data - Model Fit,
Mean (nm),0.00
Standard Deviation (nm),0.00

User Line 1,0
User Line 2,0
Average # centres/frame,35.86
Average # particles/frame,31.16
Equivalent particle concentration (E8 particles/ml),3.99
Selected average # particles/frame,0.00
Selected equivalent particle concentration (E8 particles/ml),0.00

[Settings],
Background Extract,On
Brightness,0
Gain,1.00
Blur Size,Auto,
Detection Threshold Type,Multi,
Detection Threshold,10
Min Track Length,Auto
Min Expected Size (nm),Auto

[Measurement Conditions]
Camera Type,sCMOS
Camera Shutter (ms),32.49
Camera Gain,512
Frame rate (fps),24.99
Camera bit-conversion limits,0,2925
Temperature (°C),25.20
Viscosity (cP),0.885

[Warnings]
Low Completed Tracks,No
High Noise,0 frames
Auto max jump,Successful
Drift off,No
Settings Changed Whilst Processing,No
Vibration detected,No vibration detected
Additional Errors,None

[Graph Data]
Particle Size (nm),Concentration (E6 particles / ml),,
0,0.0000,,
1,0.0000,,
2,0.0000,,
3,0.0000,,
4,0.0000,,
5,0.0000,,
6,0.0000,,
7,0.0000,,
8,0.0000,,
9,0.0000,,
10,0.0000,,
11,0.0000,,
12,0.0000,,
13,0.0000,,
14,0.0000,,
15,0.0000,,
16,0.0000,,
17,0.0000,,
18,0.0000,,
19,0.0000,,
20,0.0000,,
21,0.0000,,
22,0.0000,,
23,0.0000,,
24,0.0000,,
25,0.0000,,
26,0.0000,,
27,0.0000,,
28,0.0000,,
29,0.0000,,
30,0.0002,,
31,0.0007,,
32,0.0021,,
33,0.0054,,
34,0.0121,,
35,0.0239,,
36,0.0409,,
37,0.0614,,
38,0.0811,,
39,0.0949,,
40,0.1001,,
41,0.0982,,
42,0.0944,,
43,0.0954,,
44,0.1060,,
45,0.1282,,
46,0.1615,,
47,0.2036,,
48,0.2511,,
49,0.2997,,
50,0.3448,,
51,0.3824,,
52,0.4106,,
53,0.4293,,
54,0.4415,,
55,0.4520,,
56,0.4665,,
57,0.4897,,
58,0.5250,,
59,0.5725,,
60,0.6303,,
61,0.6941,,
62,0.7589,,
63,0.8203,,
64,0.8750,,
65,0.9221,,
66,0.9628,,
67,0.9997,,
68,1.0369,,
69,1.0780,,
70,1.1269,,
71,1.1858,,
72,1.2561,,
73,1.3375,,
74,1.4289,,
75,1.5278,,
76,1.6314,,
77,1.7365,,
78,1.8400,,
79,1.9392,,
80,2.0322,,
81,2.1175,,
82,2.1946,,
83,2.2635,,
84,2.3248,,
85,2.3793,,
86,2.4280,,
87,2.4719,,
88,2.5120,,
89,2.5490,,
90,2.5833,,
91,2.6155,,
92,2.6456,,
93,2.6738,,
94,2.6999,,
95,2.7242,,
96,2.7467,,
97,2.7676,,
98,2.7873,,
99,2.8059,,
100,2.8241,,
101,2.8419,,
102,2.8598,,
103,2.8781,,
104,2.8969,,
105,2.9160,,
106,2.9353,,
107,2.9544,,
108,2.9727,,
109,2.9897,,
110,3.0047,,
111,3.0169,,
112,3.0256,,
113,3.0305,,
114,3.0310,,
115,3.0268,,
116,3.0181,,
117,3.0050,,
118,2.9880,,
119,2.9675,,
120,2.9444,,
121,2.9194,,
122,2.8933,,
123,2.8671,,
124,2.8414,,
125,2.8167,,
126,2.7936,,
127,2.7722,,
128,2.7529,,
129,2.7354,,
130,2.7196,,
131,2.7052,,
132,2.6919,,
133,2.6793,,
134,2.6669,,
135,2.6545,,
136,2.6418,,
137,2.6286,,
138,2.6148,,
139,2.6003,,
140,2.5851,,
141,2.5693,,
142,2.5530,,
143,2.5362,,
144,2.5191,,
145,2.5017,,
146,2.4838,,
147,2.4657,,
148,2.4469,,
149,2.4276,,
150,2.4073,,
151,2.3861,,
152,2.3636,,
153,2.3398,,
154,2.3144,,
155,2.2875,,
156,2.2589,,
157,2.2288,,
158,2.1971,,
159,2.1639,,
160,2.1294,,
161,2.0938,,
162,2.0572,,
163,2.0198,,
164,1.9819,,
165,1.9436,,
166,1.9052,,
167,1.8667,,
168,1.8283,,
169,1.7900,,
170,1.7520,,
171,1.7144,,
172,1.6771,,
173,1.6403,,
174,1.6039,,
175,1.5680,,
176,1.5327,,
177,1.4980,,
178,1.4639,,
179,1.4307,,
180,1.3985,,
181,1.3672,,
182,1.3371,,
183,1.3083,,
184,1.2810,,
185,1.2552,,
186,1.2310,,
187,1.2086,,
188,1.1878,,
189,1.1687,,
190,1.1514,,
191,1.1355,,
192,1.1212,,
193,1.1083,,
194,1.0966,,
195,1.0858,,
196,1.0757,,
197,1.0661,,
198,1.0569,,
199,1.0476,,
200,1.0382,,
201,1.0283,,
202,1.0180,,
203,1.0069,,
204,0.9951,,
205,0.9824,,
206,0.9688,,
207,0.9543,,
208,0.9390,,
209,0.9229,,
210,0.9061,,
211,0.8888,,
212,0.8711,,
213,0.8532,,
214,0.8352,,
215,0.8172,,
216,0.7995,,
217,0.7822,,
218,0.7655,,
219,0.7496,,
220,0.7344,,
221,0.7203,,
222,0.7072,,
223,0.6953,,
224,0.6846,,
225,0.6751,,
226,0.6670,,
227,0.6602,,
228,0.6547,,
229,0.6505,,
230,0.6475,,
231,0.6458,,
232,0.6453,,
233,0.6460,,
234,0.6478,,
235,0.6507,,
236,0.6546,,
237,0.6594,,
238,0.6651,,
239,0.6716,,
240,0.6788,,
241,0.6867,,
242,0.6952,,
243,0.7041,,
244,0.7135,,
245,0.7231,,
246,0.7330,,
247,0.7430,,
248,0.7530,,
249,0.7629,,
250,0.7726,,
251,0.7821,,
252,0.7912,,
253,0.7998,,
254,0.8077,,
255,0.8150,,
256,0.8215,,
257,0.8272,,
258,0.8318,,
259,0.8355,,
260,0.8381,,
261,0.8397,,
262,0.8400,,
263,0.8391,,
264,0.8370,,
265,0.8337,,
266,0.8291,,
267,0.8233,,
268,0.8163,,
269,0.8082,,
270,0.7990,,
271,0.7887,,
272,0.7774,,
273,0.7652,,
274,0.7522,,
275,0.7385,,
276,0.7240,,
277,0.7091,,
278,0.6936,,
279,0.6778,,
280,0.6616,,
281,0.6453,,
282,0.6288,,
283,0.6123,,
284,0.5959,,
285,0.5796,,
286,0.5634,,
287,0.5475,,
288,0.5319,,
289,0.5166,,
290,0.5017,,
291,0.4872,,
292,0.4731,,
293,0.4594,,
294,0.4463,,
295,0.4335,,
296,0.4212,,
297,0.4094,,
298,0.3979,,
299,0.3869,,
300,0.3762,,
301,0.3660,,
302,0.3560,,
303,0.3464,,
304,0.3371,,
305,0.3281,,
306,0.3193,,
307,0.3107,,
308,0.3023,,
309,0.2941,,
310,0.2860,,
311,0.2781,,
312,0.2704,,
313,0.2627,,
314,0.2551,,
315,0.2476,,
316,0.2403,,
317,0.2329,,
318,0.2257,,
319,0.2186,,
320,0.2115,,
321,0.2046,,
322,0.1977,,
323,0.1909,,
324,0.1842,,
325,0.1776,,
326,0.1711,,
327,0.1648,,
328,0.1586,,
329,0.1525,,
330,0.1465,,
331,0.1407,,
332,0.1351,,
333,0.1296,,
334,0.1243,,
335,0.1190,,
336,0.1141,,
337,0.1093,,
338,0.1047,,
339,0.1003,,
340,0.0960,,
341,0.0920,,
342,0.0881,,
343,0.0843,,
344,0.0808,,
345,0.0775,,
346,0.0743,,
347,0.0714,,
348,0.0686,,
349,0.0660,,
350,0.0635,,
351,0.0612,,
352,0.0591,,
353,0.0572,,
354,0.0554,,
355,0.0537,,
356,0.0522,,
357,0.0508,,
358,0.0496,,
359,0.0485,,
360,0.0476,,
361,0.0467,,
362,0.0460,,
363,0.0455,,
364,0.0450,,
365,0.0447,,
366,0.0444,,
367,0.0443,,
368,0.0443,,
369,0.0443,,
370,0.0445,,
371,0.0448,,
372,0.0451,,
373,0.0456,,
374,0.0461,,
375,0.0467,,
376,0.0474,,
377,0.0482,,
378,0.0491,,
379,0.0500,,
380,0.0510,,
381,0.0520,,
382,0.0531,,
383,0.0543,,
384,0.0555,,
385,0.0568,,
386,0.0581,,
387,0.0595,,
388,0.0609,,
389,0.0623,,
390,0.0638,,
391,0.0654,,
392,0.0669,,
393,0.0685,,
394,0.0700,,
395,0.0716,,
396,0.0732,,
397,0.0749,,
398,0.0765,,
399,0.0781,,
400,0.0797,,
401,0.0812,,
402,0.0828,,
403,0.0843,,
404,0.0858,,
405,0.0873,,
406,0.0887,,
407,0.0901,,
408,0.0915,,
409,0.0928,,
410,0.0940,,
411,0.0952,,
412,0.0963,,
413,0.0974,,
414,0.0984,,
415,0.0993,,
416,0.1001,,
417,0.1008,,
418,0.1015,,
419,0.1021,,
420,0.1026,,
421,0.1030,,
422,0.1034,,
423,0.1036,,
424,0.1037,,
425,0.1038,,
426,0.1038,,
427,0.1037,,
428,0.1034,,
429,0.1031,,
430,0.1028,,
431,0.1023,,
432,0.1017,,
433,0.1011,,
434,0.1004,,
435,0.0996,,
436,0.0988,,
437,0.0978,,
438,0.0969,,
439,0.0958,,
440,0.0947,,
441,0.0935,,
442,0.0923,,
443,0.0910,,
444,0.0897,,
445,0.0884,,
446,0.0870,,
447,0.0856,,
448,0.0842,,
449,0.0827,,
450,0.0812,,
451,0.0797,,
452,0.0782,,
453,0.0767,,
454,0.0752,,
455,0.0737,,
456,0.0722,,
457,0.0707,,
458,0.0692,,
459,0.0677,,
460,0.0662,,
461,0.0648,,
462,0.0634,,
463,0.0620,,
464,0.0606,,
465,0.0593,,
466,0.0580,,
467,0.0568,,
468,0.0555,,
469,0.0543,,
470,0.0532,,
471,0.0520,,
472,0.0510,,
473,0.0499,,
474,0.0489,,
475,0.0480,,
476,0.0470,,
477,0.0462,,
478,0.0453,,
479,0.0445,,
480,0.0438,,
481,0.0431,,
482,0.0424,,
483,0.0417,,
484,0.0411,,
485,0.0406,,
486,0.0400,,
487,0.0395,,
488,0.0391,,
489,0.0386,,
490,0.0382,,
491,0.0379,,
492,0.0375,,
493,0.0372,,
494,0.0369,,
495,0.0366,,
496,0.0364,,
497,0.0362,,
498,0.0360,,
499,0.0358,,
500,0.0356,,
501,0.0354,,
502,0.0353,,
503,0.0352,,
504,0.0350,,
505,0.0349,,
506,0.0348,,
507,0.0347,,
508,0.0346,,
509,0.0345,,
510,0.0345,,
511,0.0344,,
512,0.0343,,
513,0.0342,,
514,0.0341,,
515,0.0340,,
516,0.0339,,
517,0.0338,,
518,0.0337,,
519,0.0335,,
520,0.0334,,
521,0.0333,,
522,0.0331,,
523,0.0330,,
524,0.0328,,
525,0.0326,,
526,0.0324,,
527,0.0322,,
528,0.0320,,
529,0.0317,,
530,0.0315,,
531,0.0312,,
532,0.0309,,
533,0.0306,,
534,0.0303,,
535,0.0300,,
536,0.0296,,
537,0.0293,,
538,0.0289,,
539,0.0286,,
540,0.0282,,
541,0.0278,,
542,0.0274,,
543,0.0269,,
544,0.0265,,
545,0.0260,,
546,0.0256,,
547,0.0251,,
548,0.0247,,
549,0.0242,,
550,0.0237,,
551,0.0232,,
552,0.0227,,
553,0.0222,,
554,0.0217,,
555,0.0212,,
556,0.0207,,
557,0.0201,,
558,0.0196,,
559,0.0191,,
560,0.0186,,
561,0.0181,,
562,0.0176,,
563,0.0171,,
564,0.0166,,
565,0.0161,,
566,0.0156,,
567,0.0151,,
568,0.0146,,
569,0.0141,,
570,0.0137,,
571,0.0132,,
572,0.0127,,
573,0.0123,,
574,0.0119,,
575,0.0114,,
576,0.0110,,
577,0.0106,,
578,0.0102,,
579,0.0098,,
580,0.0095,,
581,0.0091,,
582,0.0087,,
583,0.0084,,
584,0.0081,,
585,0.0078,,
586,0.0075,,
587,0.0072,,
588,0.0069,,
589,0.0066,,
590,0.0064,,
591,0.0061,,
592,0.0059,,
593,0.0057,,
594,0.0055,,
595,0.0053,,
596,0.0051,,
597,0.0049,,
598,0.0048,,
599,0.0046,,
600,0.0045,,
601,0.0043,,
602,0.0042,,
603,0.0041,,
604,0.0040,,
605,0.0039,,
606,0.0038,,
607,0.0038,,
608,0.0037,,
609,0.0037,,
610,0.0036,,
611,0.0036,,
612,0.0036,,
613,0.0035,,
614,0.0035,,
615,0.0035,,
616,0.0035,,
617,0.0035,,
618,0.0036,,
619,0.0036,,
620,0.0036,,
621,0.0037,,
622,0.0037,,
623,0.0037,,
624,0.0038,,
625,0.0039,,
626,0.0039,,
627,0.0040,,
628,0.0041,,
629,0.0041,,
630,0.0042,,
631,0.0043,,
632,0.0044,,
633,0.0045,,
634,0.0046,,
635,0.0047,,
636,0.0048,,
637,0.0049,,
638,0.0050,,
639,0.0051,,
640,0.0052,,
641,0.0054,,
642,0.0055,,
643,0.0056,,
644,0.0057,,
645,0.0059,,
646,0.0060,,
647,0.0061,,
648,0.0063,,
649,0.0064,,
650,0.0065,,
651,0.0067,,
652,0.0068,,
653,0.0069,,
654,0.0071,,
655,0.0072,,
656,0.0074,,
657,0.0075,,
658,0.0077,,
659,0.0078,,
660,0.0079,,
661,0.0081,,
662,0.0082,,
663,0.0084,,
664,0.0085,,
665,0.0087,,
666,0.0088,,
667,0.0089,,
668,0.0091,,
669,0.0092,,
670,0.0093,,
671,0.0095,,
672,0.0096,,
673,0.0098,,
674,0.0099,,
675,0.0100,,
676,0.0101,,
677,0.0103,,
678,0.0104,,
679,0.0105,,
680,0.0107,,
681,0.0108,,
682,0.0109,,
683,0.0110,,
684,0.0111,,
685,0.0112,,
686,0.0113,,
687,0.0114,,
688,0.0115,,
689,0.0116,,
690,0.0117,,
691,0.0118,,
692,0.0119,,
693,0.0120,,
694,0.0121,,
695,0.0122,,
696,0.0123,,
697,0.0123,,
698,0.0124,,
699,0.0125,,
700,0.0125,,
701,0.0126,,
702,0.0127,,
703,0.0127,,
704,0.0128,,
705,0.0128,,
706,0.0129,,
707,0.0129,,
708,0.0129,,
709,0.0130,,
710,0.0130,,
711,0.0130,,
712,0.0130,,
713,0.0130,,
714,0.0131,,
715,0.0131,,
716,0.0131,,
717,0.0131,,
718,0.0131,,
719,0.0131,,
720,0.0131,,
721,0.0130,,
722,0.0130,,
723,0.0130,,
724,0.0130,,
725,0.0129,,
726,0.0129,,
727,0.0129,,
728,0.0128,,
729,0.0128,,
730,0.0127,,
731,0.0127,,
732,0.0126,,
733,0.0126,,
734,0.0125,,
735,0.0125,,
736,0.0124,,
737,0.0123,,
738,0.0122,,
739,0.0122,,
740,0.0121,,
741,0.0120,,
742,0.0119,,
743,0.0118,,
744,0.0117,,
745,0.0116,,
746,0.0115,,
747,0.0114,,
748,0.0113,,
749,0.0112,,
750,0.0111,,
751,0.0110,,
752,0.0109,,
753,0.0108,,
754,0.0107,,
755,0.0106,,
756,0.0104,,
757,0.0103,,
758,0.0102,,
759,0.0101,,
760,0.0100,,
761,0.0098,,
762,0.0097,,
763,0.0096,,
764,0.0094,,
765,0.0093,,
766,0.0092,,
767,0.0090,,
768,0.0089,,
769,0.0088,,
770,0.0086,,
771,0.0085,,
772,0.0084,,
773,0.0082,,
774,0.0081,,
775,0.0080,,
776,0.0078,,
777,0.0077,,
778,0.0075,,
779,0.0074,,
780,0.0073,,
781,0.0071,,
782,0.0070,,
783,0.0069,,
784,0.0067,,
785,0.0066,,
786,0.0065,,
787,0.0063,,
788,0.0062,,
789,0.0061,,
790,0.0059,,
791,0.0058,,
792,0.0057,,
793,0.0055,,
794,0.0054,,
795,0.0053,,
796,0.0052,,
797,0.0050,,
798,0.0049,,
799,0.0048,,
800,0.0047,,
801,0.0046,,
802,0.0044,,
803,0.0043,,
804,0.0042,,
805,0.0041,,
806,0.0040,,
807,0.0039,,
808,0.0038,,
809,0.0037,,
810,0.0036,,
811,0.0035,,
812,0.0034,,
813,0.0033,,
814,0.0032,,
815,0.0031,,
816,0.0030,,
817,0.0029,,
818,0.0028,,
819,0.0027,,
820,0.0026,,
821,0.0026,,
822,0.0025,,
823,0.0024,,
824,0.0023,,
825,0.0022,,
826,0.0022,,
827,0.0021,,
828,0.0020,,
829,0.0019,,
830,0.0019,,
831,0.0018,,
832,0.0017,,
833,0.0017,,
834,0.0016,,
835,0.0016,,
836,0.0015,,
837,0.0014,,
838,0.0014,,
839,0.0013,,
840,0.0013,,
841,0.0012,,
842,0.0012,,
843,0.0011,,
844,0.0011,,
845,0.0011,,
846,0.0010,,
847,0.0010,,
848,0.0009,,
849,0.0009,,
850,0.0009,,
851,0.0008,,
852,0.0008,,
853,0.0007,,
854,0.0007,,
855,0.0007,,
856,0.0007,,
857,0.0006,,
858,0.0006,,
859,0.0006,,
860,0.0005,,
861,0.0005,,
862,0.0005,,
863,0.0005,,
864,0.0004,,
865,0.0004,,
866,0.0004,,
867,0.0004,,
868,0.0004,,
869,0.0004,,
870,0.0003,,
871,0.0003,,
872,0.0003,,
873,0.0003,,
874,0.0003,,
875,0.0003,,
876,0.0002,,
877,0.0002,,
878,0.0002,,
879,0.0002,,
880,0.0002,,
881,0.0002,,
882,0.0002,,
883,0.0002,,
884,0.0002,,
885,0.0002,,
886,0.0001,,
887,0.0001,,
888,0.0001,,
889,0.0001,,
890,0.0001,,
891,0.0001,,
892,0.0001,,
893,0.0001,,
894,0.0001,,
895,0.0001,,
896,0.0001,,
897,0.0001,,
898,0.0001,,
899,0.0001,,
900,0.0001,,
901,0.0001,,
902,0.0001,,
903,0.0000,,
904,0.0000,,
905,0.0000,,
906,0.0000,,
907,0.0000,,
908,0.0000,,
909,0.0000,,
910,0.0000,,
911,0.0000,,
912,0.0000,,
913,0.0000,,
914,0.0000,,
915,0.0000,,
916,0.0000,,
917,0.0000,,
918,0.0000,,
919,0.0000,,
920,0.0000,,
921,0.0000,,
922,0.0000,,
923,0.0000,,
924,0.0000,,
925,0.0000,,
926,0.0000,,
927,0.0000,,
928,0.0000,,
929,0.0000,,
930,0.0000,,
931,0.0000,,
932,0.0000,,
933,0.0000,,
934,0.0000,,
935,0.0000,,
936,0.0000,,
937,0.0000,,
938,0.0000,,
939,0.0000,,
940,0.0000,,
941,0.0000,,
942,0.0000,,
943,0.0000,,
944,0.0000,,
945,0.0000,,
946,0.0000,,
947,0.0000,,
948,0.0000,,
949,0.0000,,
950,0.0000,,
951,0.0000,,
952,0.0000,,
953,0.0000,,
954,0.0000,,
955,0.0000,,
956,0.0000,,
957,0.0000,,
958,0.0000,,
959,0.0000,,
960,0.0000,,
961,0.0000,,
962,0.0000,,
963,0.0000,,
964,0.0000,,
965,0.0000,,
966,0.0000,,
967,0.0000,,
968,0.0000,,
969,0.0000,,
970,0.0000,,
971,0.0000,,
972,0.0000,,
973,0.0000,,
974,0.0000,,
975,0.0000,,
976,0.0000,,
977,0.0000,,
978,0.0000,,
979,0.0000,,
980,0.0000,,
981,0.0000,,
982,0.0000,,
983,0.0000,,
984,0.0000,,
985,0.0000,,
986,0.0000,,
987,0.0000,,
988,0.0000,,
989,0.0000,,
990,0.0000,,
991,0.0000,,
992,0.0000,,
993,0.0000,,
994,0.0000,,
995,0.0000,,
996,0.0000,,
997,0.0000,,
998,0.0000,,
999,0.0000,,
1000,0.0000,,
1001,0.0000,,
1002,0.0000,,
1003,0.0000,,
1004,0.0000,,
1005,0.0000,,
1006,0.0000,,
1007,0.0000,,
1008,0.0000,,
1009,0.0000,,
1010,0.0000,,
1011,0.0000,,
1012,0.0000,,
1013,0.0000,,
1014,0.0000,,
1015,0.0000,,
1016,0.0000,,
1017,0.0000,,
1018,0.0000,,
1019,0.0000,,
1020,0.0000,,
1021,0.0000,,
1022,0.0000,,
1023,0.0000,,
1024,0.0000,,
1025,0.0000,,
1026,0.0000,,
1027,0.0000,,
1028,0.0000,,
1029,0.0000,,
1030,0.0000,,
1031,0.0000,,
1032,0.0000,,
1033,0.0000,,
1034,0.0000,,
1035,0.0000,,
1036,0.0000,,
1037,0.0000,,
1038,0.0000,,
1039,0.0000,,
1040,0.0000,,
1041,0.0000,,
1042,0.0000,,
1043,0.0000,,
1044,0.0000,,
1045,0.0000,,
1046,0.0000,,
1047,0.0000,,
1048,0.0000,,
1049,0.0000,,
1050,0.0000,,
1051,0.0000,,
1052,0.0000,,
1053,0.0000,,
1054,0.0000,,
1055,0.0000,,
1056,0.0000,,
1057,0.0000,,
1058,0.0000,,
1059,0.0000,,
1060,0.0000,,
1061,0.0000,,
1062,0.0000,,
1063,0.0000,,
1064,0.0000,,
1065,0.0000,,
1066,0.0000,,
1067,0.0000,,
1068,0.0000,,
1069,0.0000,,
1070,0.0000,,
1071,0.0000,,
1072,0.0000,,
1073,0.0000,,
1074,0.0000,,
1075,0.0000,,
1076,0.0000,,
1077,0.0000,,
1078,0.0000,,
1079,0.0000,,
1080,0.0000,,
1081,0.0000,,
1082,0.0000,,
1083,0.0000,,
1084,0.0000,,
1085,0.0000,,
1086,0.0000,,
1087,0.0000,,
1088,0.0000,,
1089,0.0000,,
1090,0.0000,,
1091,0.0000,,
1092,0.0000,,
1093,0.0000,,
1094,0.0000,,
1095,0.0000,,
1096,0.0000,,
1097,0.0000,,
1098,0.0000,,
1099,0.0000,,
1100,0.0000,,
1101,0.0000,,
1102,0.0000,,
1103,0.0000,,
1104,0.0000,,
1105,0.0000,,
1106,0.0000,,
1107,0.0000,,
1108,0.0000,,
1109,0.0000,,
1110,0.0000,,
1111,0.0000,,
1112,0.0000,,
1113,0.0000,,
1114,0.0000,,
1115,0.0000,,
1116,0.0000,,
1117,0.0000,,
1118,0.0000,,
1119,0.0000,,
1120,0.0000,,
1121,0.0000,,
1122,0.0000,,
1123,0.0000,,
1124,0.0000,,
1125,0.0000,,
1126,0.0000,,
1127,0.0000,,
1128,0.0000,,
1129,0.0000,,
1130,0.0000,,
1131,0.0000,,
1132,0.0000,,
1133,0.0000,,
1134,0.0000,,
1135,0.0000,,
1136,0.0000,,
1137,0.0000,,
1138,0.0000,,
1139,0.0000,,
1140,0.0000,,
1141,0.0000,,
1142,0.0000,,
1143,0.0000,,
1144,0.0000,,
1145,0.0000,,
1146,0.0000,,
1147,0.0000,,
1148,0.0000,,
1149,0.0000,,
1150,0.0000,,
1151,0.0000,,
1152,0.0000,,
1153,0.0000,,
1154,0.0000,,
1155,0.0000,,
1156,0.0000,,
1157,0.0000,,
1158,0.0000,,
1159,0.0000,,
1160,0.0000,,
1161,0.0000,,
1162,0.0000,,
1163,0.0000,,
1164,0.0000,,
1165,0.0000,,
1166,0.0000,,
1167,0.0000,,
1168,0.0000,,
1169,0.0000,,
1170,0.0000,,
1171,0.0000,,
1172,0.0000,,
1173,0.0000,,
1174,0.0000,,
1175,0.0000,,
1176,0.0000,,
1177,0.0000,,
1178,0.0000,,
1179,0.0000,,
1180,0.0000,,
1181,0.0000,,
1182,0.0000,,
1183,0.0000,,
1184,0.0000,,
1185,0.0000,,
1186,0.0000,,
1187,0.0000,,
1188,0.0000,,
1189,0.0000,,
1190,0.0000,,
1191,0.0000,,
1192,0.0000,,
1193,0.0000,,
1194,0.0000,,
1195,0.0000,,
1196,0.0000,,
1197,0.0000,,
1198,0.0000,,
1199,0.0000,,
1200,0.0000,,
1201,0.0000,,
1202,0.0000,,
1203,0.0000,,
1204,0.0000,,
1205,0.0000,,
1206,0.0000,,
1207,0.0000,,
1208,0.0000,,
1209,0.0000,,
1210,0.0000,,
1211,0.0000,,
1212,0.0000,,
1213,0.0000,,
1214,0.0000,,
1215,0.0000,,
1216,0.0000,,
1217,0.0000,,
1218,0.0000,,
1219,0.0000,,
1220,0.0000,,
1221,0.0000,,
1222,0.0000,,
1223,0.0000,,
1224,0.0000,,
1225,0.0000,,
1226,0.0000,,
1227,0.0000,,
1228,0.0000,,
1229,0.0000,,
1230,0.0000,,
1231,0.0000,,
1232,0.0000,,
1233,0.0000,,
1234,0.0000,,
1235,0.0000,,
1236,0.0000,,
1237,0.0000,,
1238,0.0000,,
1239,0.0000,,
1240,0.0000,,
1241,0.0000,,
1242,0.0000,,
1243,0.0000,,
1244,0.0000,,
1245,0.0000,,
1246,0.0000,,
1247,0.0000,,
1248,0.0000,,
1249,0.0000,,
1250,0.0000,,
1251,0.0000,,
1252,0.0000,,
1253,0.0000,,
1254,0.0000,,
1255,0.0000,,
1256,0.0000,,
1257,0.0000,,
1258,0.0000,,
1259,0.0000,,
1260,0.0000,,
1261,0.0000,,
1262,0.0000,,
1263,0.0000,,
1264,0.0000,,
1265,0.0000,,
1266,0.0000,,
1267,0.0000,,
1268,0.0000,,
1269,0.0000,,
1270,0.0000,,
1271,0.0000,,
1272,0.0000,,
1273,0.0000,,
1274,0.0000,,
1275,0.0000,,
1276,0.0000,,
1277,0.0000,,
1278,0.0000,,
1279,0.0000,,
1280,0.0000,,
1281,0.0000,,
1282,0.0000,,
1283,0.0000,,
1284,0.0000,,
1285,0.0000,,
1286,0.0000,,
1287,0.0000,,
1288,0.0000,,
1289,0.0000,,
1290,0.0000,,
1291,0.0000,,
1292,0.0000,,
1293,0.0000,,
1294,0.0000,,
1295,0.0000,,
1296,0.0000,,
1297,0.0000,,
1298,0.0000,,
1299,0.0000,,
1300,0.0000,,
1301,0.0000,,
1302,0.0000,,
1303,0.0000,,
1304,0.0000,,
1305,0.0000,,
1306,0.0000,,
1307,0.0000,,
1308,0.0000,,
1309,0.0000,,
1310,0.0000,,
1311,0.0000,,
1312,0.0000,,
1313,0.0000,,
1314,0.0000,,
1315,0.0000,,
1316,0.0000,,
1317,0.0000,,
1318,0.0000,,
1319,0.0000,,
1320,0.0000,,
1321,0.0000,,
1322,0.0000,,
1323,0.0000,,
1324,0.0000,,
1325,0.0000,,
1326,0.0000,,
1327,0.0000,,
1328,0.0000,,
1329,0.0000,,
1330,0.0000,,
1331,0.0000,,
1332,0.0000,,
1333,0.0000,,
1334,0.0000,,
1335,0.0000,,
1336,0.0000,,
1337,0.0000,,
1338,0.0000,,
1339,0.0000,,
1340,0.0000,,
1341,0.0000,,
1342,0.0000,,
1343,0.0000,,
1344,0.0000,,
1345,0.0000,,
1346,0.0000,,
1347,0.0000,,
1348,0.0000,,
1349,0.0000,,
1350,0.0000,,
1351,0.0000,,
1352,0.0000,,
1353,0.0000,,
1354,0.0000,,
1355,0.0000,,
1356,0.0000,,
1357,0.0000,,
1358,0.0000,,
1359,0.0000,,
1360,0.0000,,
1361,0.0000,,
1362,0.0000,,
1363,0.0000,,
1364,0.0000,,
1365,0.0000,,
1366,0.0000,,
1367,0.0000,,
1368,0.0000,,
1369,0.0000,,
1370,0.0000,,
1371,0.0000,,
1372,0.0000,,
1373,0.0000,,
1374,0.0000,,
1375,0.0000,,
1376,0.0000,,
1377,0.0000,,
1378,0.0000,,
1379,0.0000,,
1380,0.0000,,
1381,0.0000,,
1382,0.0000,,
1383,0.0000,,
1384,0.0000,,
1385,0.0000,,
1386,0.0000,,
1387,0.0000,,
1388,0.0000,,
1389,0.0000,,
1390,0.0000,,
1391,0.0000,,
1392,0.0000,,
1393,0.0000,,
1394,0.0000,,
1395,0.0000,,
1396,0.0000,,
1397,0.0000,,
1398,0.0000,,
1399,0.0000,,
1400,0.0000,,
1401,0.0000,,
1402,0.0000,,
1403,0.0000,,
1404,0.0000,,
1405,0.0000,,
1406,0.0000,,
1407,0.0000,,
1408,0.0000,,
1409,0.0000,,
1410,0.0000,,
1411,0.0000,,
1412,0.0000,,
1413,0.0000,,
1414,0.0000,,
1415,0.0000,,
1416,0.0000,,
1417,0.0000,,
1418,0.0000,,
1419,0.0000,,
1420,0.0000,,
1421,0.0000,,
1422,0.0000,,
1423,0.0000,,
1424,0.0000,,
1425,0.0000,,
1426,0.0000,,
1427,0.0000,,
1428,0.0000,,
1429,0.0000,,
1430,0.0000,,
1431,0.0000,,
1432,0.0000,,
1433,0.0000,,
1434,0.0000,,
1435,0.0000,,
1436,0.0000,,
1437,0.0000,,
1438,0.0000,,
1439,0.0000,,
1440,0.0000,,
1441,0.0000,,
1442,0.0000,,
1443,0.0000,,
1444,0.0000,,
1445,0.0000,,
1446,0.0000,,
1447,0.0000,,
1448,0.0000,,
1449,0.0000,,
1450,0.0000,,
1451,0.0000,,
1452,0.0000,,
1453,0.0000,,
1454,0.0000,,
1455,0.0000,,
1456,0.0000,,
1457,0.0000,,
1458,0.0000,,
1459,0.0000,,
1460,0.0000,,
1461,0.0000,,
1462,0.0000,,
1463,0.0000,,
1464,0.0000,,
1465,0.0000,,
1466,0.0000,,
1467,0.0000,,
1468,0.0000,,
1469,0.0000,,
1470,0.0000,,
1471,0.0000,,
1472,0.0000,,
1473,0.0000,,
1474,0.0000,,
1475,0.0000,,
1476,0.0000,,
1477,0.0000,,
1478,0.0000,,
1479,0.0000,,
1480,0.0000,,
1481,0.0000,,
1482,0.0000,,
1483,0.0000,,
1484,0.0000,,
1485,0.0000,,
1486,0.0000,,
1487,0.0000,,
1488,0.0000,,
1489,0.0000,,
1490,0.0000,,
1491,0.0000,,
1492,0.0000,,
1493,0.0000,,
1494,0.0000,,
1495,0.0000,,
1496,0.0000,,
1497,0.0000,,
1498,0.0000,,
1499,0.0000,,
1500,0.0000,,
1501,0.0000,,
1502,0.0000,,
1503,0.0000,,
1504,0.0000,,
1505,0.0000,,
1506,0.0000,,
1507,0.0000,,
1508,0.0000,,
1509,0.0000,,
1510,0.0000,,
1511,0.0000,,
1512,0.0000,,
1513,0.0000,,
1514,0.0000,,
1515,0.0000,,
1516,0.0000,,
1517,0.0000,,
1518,0.0000,,
1519,0.0000,,
1520,0.0000,,
1521,0.0000,,
1522,0.0000,,
1523,0.0000,,
1524,0.0000,,
1525,0.0000,,
1526,0.0000,,
1527,0.0000,,
1528,0.0000,,
1529,0.0000,,
1530,0.0000,,
1531,0.0000,,
1532,0.0000,,
1533,0.0000,,
1534,0.0000,,
1535,0.0000,,
1536,0.0000,,
1537,0.0000,,
1538,0.0000,,
1539,0.0000,,
1540,0.0000,,
1541,0.0000,,
1542,0.0000,,
1543,0.0000,,
1544,0.0000,,
1545,0.0000,,
1546,0.0000,,
1547,0.0000,,
1548,0.0000,,
1549,0.0000,,
1550,0.0000,,
1551,0.0000,,
1552,0.0000,,
1553,0.0000,,
1554,0.0000,,
1555,0.0000,,
1556,0.0000,,
1557,0.0000,,
1558,0.0000,,
1559,0.0000,,
1560,0.0000,,
1561,0.0000,,
1562,0.0000,,
1563,0.0000,,
1564,0.0000,,
1565,0.0000,,
1566,0.0000,,
1567,0.0000,,
1568,0.0000,,
1569,0.0000,,
1570,0.0000,,
1571,0.0000,,
1572,0.0000,,
1573,0.0000,,
1574,0.0000,,
1575,0.0000,,
1576,0.0000,,
1577,0.0000,,
1578,0.0000,,
1579,0.0000,,
1580,0.0000,,
1581,0.0000,,
1582,0.0000,,
1583,0.0000,,
1584,0.0000,,
1585,0.0000,,
1586,0.0000,,
1587,0.0000,,
1588,0.0000,,
1589,0.0000,,
1590,0.0000,,
1591,0.0000,,
1592,0.0000,,
1593,0.0000,,
1594,0.0000,,
1595,0.0000,,
1596,0.0000,,
1597,0.0000,,
1598,0.0000,,
1599,0.0000,,
1600,0.0000,,
1601,0.0000,,
1602,0.0000,,
1603,0.0000,,
1604,0.0000,,
1605,0.0000,,
1606,0.0000,,
1607,0.0000,,
1608,0.0000,,
1609,0.0000,,
1610,0.0000,,
1611,0.0000,,
1612,0.0000,,
1613,0.0000,,
1614,0.0000,,
1615,0.0000,,
1616,0.0000,,
1617,0.0000,,
1618,0.0000,,
1619,0.0000,,
1620,0.0000,,
1621,0.0000,,
1622,0.0000,,
1623,0.0000,,
1624,0.0000,,
1625,0.0000,,
1626,0.0000,,
1627,0.0000,,
1628,0.0000,,
1629,0.0000,,
1630,0.0000,,
1631,0.0000,,
1632,0.0000,,
1633,0.0000,,
1634,0.0000,,
1635,0.0000,,
1636,0.0000,,
1637,0.0000,,
1638,0.0000,,
1639,0.0000,,
1640,0.0000,,
1641,0.0000,,
1642,0.0000,,
1643,0.0000,,
1644,0.0000,,
1645,0.0000,,
1646,0.0000,,
1647,0.0000,,
1648,0.0000,,
1649,0.0000,,
1650,0.0000,,
1651,0.0000,,
1652,0.0000,,
1653,0.0000,,
1654,0.0000,,
1655,0.0000,,
1656,0.0000,,
1657,0.0000,,
1658,0.0000,,
1659,0.0000,,
1660,0.0000,,
1661,0.0000,,
1662,0.0000,,
1663,0.0000,,
1664,0.0000,,
1665,0.0000,,
1666,0.0000,,
1667,0.0000,,
1668,0.0000,,
1669,0.0000,,
1670,0.0000,,
1671,0.0000,,
1672,0.0000,,
1673,0.0000,,
1674,0.0000,,
1675,0.0000,,
1676,0.0000,,
1677,0.0000,,
1678,0.0000,,
1679,0.0000,,
1680,0.0000,,
1681,0.0000,,
1682,0.0000,,
1683,0.0000,,
1684,0.0000,,
1685,0.0000,,
1686,0.0000,,
1687,0.0000,,
1688,0.0000,,
1689,0.0000,,
1690,0.0000,,
1691,0.0000,,
1692,0.0000,,
1693,0.0000,,
1694,0.0000,,
1695,0.0000,,
1696,0.0000,,
1697,0.0000,,
1698,0.0000,,
1699,0.0000,,
1700,0.0000,,
1701,0.0000,,
1702,0.0000,,
1703,0.0000,,
1704,0.0000,,
1705,0.0000,,
1706,0.0000,,
1707,0.0000,,
1708,0.0000,,
1709,0.0000,,
1710,0.0000,,
1711,0.0000,,
1712,0.0000,,
1713,0.0000,,
1714,0.0000,,
1715,0.0000,,
1716,0.0000,,
1717,0.0000,,
1718,0.0000,,
1719,0.0000,,
1720,0.0000,,
1721,0.0000,,
1722,0.0000,,
1723,0.0000,,
1724,0.0000,,
1725,0.0000,,
1726,0.0000,,
1727,0.0000,,
1728,0.0000,,
1729,0.0000,,
1730,0.0000,,
1731,0.0000,,
1732,0.0000,,
1733,0.0000,,
1734,0.0000,,
1735,0.0000,,
1736,0.0000,,
1737,0.0000,,
1738,0.0000,,
1739,0.0000,,
1740,0.0000,,
1741,0.0000,,
1742,0.0000,,
1743,0.0000,,
1744,0.0000,,
1745,0.0000,,
1746,0.0000,,
1747,0.0000,,
1748,0.0000,,
1749,0.0000,,
1750,0.0000,,
1751,0.0000,,
1752,0.0000,,
1753,0.0000,,
1754,0.0000,,
1755,0.0000,,
1756,0.0000,,
1757,0.0000,,
1758,0.0000,,
1759,0.0000,,
1760,0.0000,,
1761,0.0000,,
1762,0.0000,,
1763,0.0000,,
1764,0.0000,,
1765,0.0000,,
1766,0.0000,,
1767,0.0000,,
1768,0.0000,,
1769,0.0000,,
1770,0.0000,,
1771,0.0000,,
1772,0.0000,,
1773,0.0000,,
1774,0.0000,,
1775,0.0000,,
1776,0.0000,,
1777,0.0000,,
1778,0.0000,,
1779,0.0000,,
1780,0.0000,,
1781,0.0000,,
1782,0.0000,,
1783,0.0000,,
1784,0.0000,,
1785,0.0000,,
1786,0.0000,,
1787,0.0000,,
1788,0.0000,,
1789,0.0000,,
1790,0.0000,,
1791,0.0000,,
1792,0.0000,,
1793,0.0000,,
1794,0.0000,,
1795,0.0000,,
1796,0.0000,,
1797,0.0000,,
1798,0.0000,,
1799,0.0000,,
1800,0.0000,,
1801,0.0000,,
1802,0.0000,,
1803,0.0000,,
1804,0.0000,,
1805,0.0000,,
1806,0.0000,,
1807,0.0000,,
1808,0.0000,,
1809,0.0000,,
1810,0.0000,,
1811,0.0000,,
1812,0.0000,,
1813,0.0000,,
1814,0.0000,,
1815,0.0000,,
1816,0.0000,,
1817,0.0000,,
1818,0.0000,,
1819,0.0000,,
1820,0.0000,,
1821,0.0000,,
1822,0.0000,,
1823,0.0000,,
1824,0.0000,,
1825,0.0000,,
1826,0.0000,,
1827,0.0000,,
1828,0.0000,,
1829,0.0000,,
1830,0.0000,,
1831,0.0000,,
1832,0.0000,,
1833,0.0000,,
1834,0.0000,,
1835,0.0000,,
1836,0.0000,,
1837,0.0000,,
1838,0.0000,,
1839,0.0000,,
1840,0.0000,,
1841,0.0000,,
1842,0.0000,,
1843,0.0000,,
1844,0.0000,,
1845,0.0000,,
1846,0.0000,,
1847,0.0000,,
1848,0.0000,,
1849,0.0000,,
1850,0.0000,,
1851,0.0000,,
1852,0.0000,,
1853,0.0000,,
1854,0.0000,,
1855,0.0000,,
1856,0.0000,,
1857,0.0000,,
1858,0.0000,,
1859,0.0000,,
1860,0.0000,,
1861,0.0000,,
1862,0.0000,,
1863,0.0000,,
1864,0.0000,,
1865,0.0000,,
1866,0.0000,,
1867,0.0000,,
1868,0.0000,,
1869,0.0000,,
1870,0.0000,,
1871,0.0000,,
1872,0.0000,,
1873,0.0000,,
1874,0.0000,,
1875,0.0000,,
1876,0.0000,,
1877,0.0000,,
1878,0.0000,,
1879,0.0000,,
1880,0.0000,,
1881,0.0000,,
1882,0.0000,,
1883,0.0000,,
1884,0.0000,,
1885,0.0000,,
1886,0.0000,,
1887,0.0000,,
1888,0.0000,,
1889,0.0000,,
1890,0.0000,,
1891,0.0000,,
1892,0.0000,,
1893,0.0000,,
1894,0.0000,,
1895,0.0000,,
1896,0.0000,,
1897,0.0000,,
1898,0.0000,,
1899,0.0000,,
1900,0.0000,,
1901,0.0000,,
1902,0.0000,,
1903,0.0000,,
1904,0.0000,,
1905,0.0000,,
1906,0.0000,,
1907,0.0000,,
1908,0.0000,,
1909,0.0000,,
1910,0.0000,,
1911,0.0000,,
1912,0.0000,,
1913,0.0000,,
1914,0.0000,,
1915,0.0000,,
1916,0.0000,,
1917,0.0000,,
1918,0.0000,,
1919,0.0000,,
1920,0.0000,,
1921,0.0000,,
1922,0.0000,,
1923,0.0000,,
1924,0.0000,,
1925,0.0000,,
1926,0.0000,,
1927,0.0000,,
1928,0.0000,,
1929,0.0000,,
1930,0.0000,,
1931,0.0000,,
1932,0.0000,,
1933,0.0000,,
1934,0.0000,,
1935,0.0000,,
1936,0.0000,,
1937,0.0000,,
1938,0.0000,,
1939,0.0000,,
1940,0.0000,,
1941,0.0000,,
1942,0.0000,,
1943,0.0000,,
1944,0.0000,,
1945,0.0000,,
1946,0.0000,,
1947,0.0000,,
1948,0.0000,,
1949,0.0000,,
1950,0.0000,,
1951,0.0000,,
1952,0.0000,,
1953,0.0000,,
1954,0.0000,,
1955,0.0000,,
1956,0.0000,,
1957,0.0000,,
1958,0.0000,,
1959,0.0000,,
1960,0.0000,,
1961,0.0000,,
1962,0.0000,,
1963,0.0000,,
1964,0.0000,,
1965,0.0000,,
1966,0.0000,,
1967,0.0000,,
1968,0.0000,,
1969,0.0000,,
1970,0.0000,,
1971,0.0000,,
1972,0.0000,,
1973,0.0000,,
1974,0.0000,,
1975,0.0000,,
1976,0.0000,,
1977,0.0000,,
1978,0.0000,,
1979,0.0000,,
1980,0.0000,,
1981,0.0000,,
1982,0.0000,,
1983,0.0000,,
1984,0.0000,,
1985,0.0000,,
1986,0.0000,,
1987,0.0000,,
1988,0.0000,,
1989,0.0000,,
1990,0.0000,,
1991,0.0000,,
1992,0.0000,,
1993,0.0000,,
1994,0.0000,,
1995,0.0000,,
1996,0.0000,,
1997,0.0000,,
1998,0.0000,,
1999,0.0000,,

[Percentile Undersize]
Percentile,Particle Size (nm),
0,29,
1,55,
2,62,
3,66,
4,70,
5,73,
6,76,
7,78,
8,80,
9,82,
10,84,
11,86,
12,87,
13,89,
14,90,
15,92,
16,93,
17,95,
18,96,
19,98,
20,99,
21,101,
22,102,
23,103,
24,105,
25,106,
26,108,
27,109,
28,110,
29,112,
30,113,
31,114,
32,115,
33,117,
34,118,
35,119,
36,121,
37,122,
38,124,
39,125,
40,126,
41,128,
42,129,
43,131,
44,132,
45,134,
46,135,
47,137,
48,138,
49,140,
50,141,
51,143,
52,144,
53,146,
54,148,
55,149,
56,151,
57,153,
58,154,
59,156,
60,158,
61,160,
62,162,
63,164,
64,166,
65,168,
66,170,
67,172,
68,175,
69,177,
70,180,
71,183,
72,186,
73,190,
74,193,
75,197,
76,201,
77,204,
78,209,
79,213,
80,218,
81,224,
82,230,
83,236,
84,242,
85,247,
86,252,
87,257,
88,262,
89,267,
90,272,
91,277,
92,283,
93,290,
94,300,
95,312,
96,332,
97,393,
98,436,
99,503,
100,946,

